Freq,normFlux
1899.756771161322,2.528082942902657
1899.761770521134,1.858892293244989
1899.766769880946,1.387013113122610
1899.771769240759,1.137929793148620
1899.776768600571,1.038516427413145
1899.781767960384,1.008371801291096
1899.786767320196,1.001409752471575
1899.791766680008,1.000183298970893
1899.796766039821,1.000018357471799
1899.801765399633,1.000001413489830
1899.806764759445,1.000000083185685
1899.811764119258,1.000000002522595
1899.816763479070,0.9999999962956946
1899.821762838882,0.9999999889242780
1899.826762198695,0.9999999694316156
1899.831761558507,0.9999999194275416
1899.836760918319,0.9999997971155593
1899.841760278132,0.9999995119552296
1899.846759637944,0.9999988784460940
1899.851758997757,0.9999975377458284
1899.856758357569,0.9999948357914208
1899.861757717381,0.9999896522951063
1899.866757077194,0.9999801905135395
1899.871756437006,0.9999637653712824
1899.876755796819,0.9999366643896820
1899.881755156631,0.9998941899296897
1899.886754516443,0.9998310007025452
1899.891753876256,0.9997418296756729
1899.896753236068,0.9996225492678730
1899.901752595880,0.9994713973688275
1899.906751955693,0.9992900250097070
1899.911751315505,0.9990839659936832
1899.916750675317,0.9988622399546291
1899.921750035130,0.9986360956366733
1899.926749394942,0.9984172823903722
1899.931748754754,0.9982165104181643
1899.936748114567,0.9980427259180346
1899.941747474379,0.9979034203843070
1899.946746834192,0.9978055743618007
1899.951746194004,0.9977563519126784
1899.956745553816,0.9977626574865868
1899.961744913629,0.9978292439294574
1899.966744273441,0.9979559571023232
1899.971743633253,0.9981354075322263
1899.976742993066,0.9983524191458938
1899.981742352878,0.9985859252601008
1899.986741712690,0.9988129066653704
1899.991741072503,0.9990130696556910
1899.996740432315,0.9991726944441227
1900.001739792128,0.9992865215071671
1900.006739151940,0.9993573860900036
1900.011738511752,0.9993941105227565
1900.016737871565,0.9994085897461453
1900.021737231377,0.9994129860197960
1900.026736591189,0.9994176327308516
1900.031735951002,0.9994298590413915
1900.036735310814,0.9994536536185146
1900.041734670627,0.9994899429788907
1900.046734030439,0.9995372380469255
1900.051733390251,0.9995924411816467
1900.056732750063,0.9996516580882469
1900.061732109876,0.9997109046884319
1900.066731469688,0.9997666374599823
1900.071730829501,0.9998160717464161
1900.076730189313,0.9998572875034223
1900.081729549125,0.9998891525421112
1900.086728908938,0.9999111145122055
1900.091728268750,0.9999229215068441
1900.096727628563,0.9999243277732991
1900.101726988375,0.9999148292674349
1900.106726348187,0.9998934587803214
1900.111725708000,0.9998586566416658
1900.116725067812,0.9998082232933052
1900.121724427624,0.9997393548755532
1900.126723787437,0.9996487611680845
1900.131723147249,0.9995328646333633
1900.136722507061,0.9993880777284145
1900.141721866874,0.9992111515099089
1900.146721226686,0.9989995812961723
1900.151720586498,0.9987520453112564
1900.156719946311,0.9984688413379667
1900.161719306123,0.9981522766449030
1900.166718665936,0.9978069602934111
1900.171718025748,0.9974399466342567
1900.176717385560,0.9970606859392427
1900.181716745373,0.9966807531351896
1900.186716105185,0.9963133475922265
1900.191715464998,0.9959725835283707
1900.196714824810,0.9956726183253534
1900.201714184622,0.9954266907503960
1900.206713544434,0.9952461586358632
1900.211712904247,0.9951396326781259
1900.216712264059,0.9951122978380240
1900.221711623872,0.9951654964015342
1900.226710983684,0.9952966191036611
1900.231710343496,0.9954993165338932
1900.236709703309,0.9957640071250340
1900.241709063121,0.9960786254680530
1900.246708422933,0.9964295300179621
1900.251707782746,0.9968024756682982
1900.256707142558,0.9971835555660566
1900.261706502371,0.9975600273265383
1900.266705862183,0.9979209591213941
1900.271705221995,0.9982576573185177
1900.276704581808,0.9985638652552852
1900.281703941620,0.9988357483261027
1900.286703301432,0.9990717006982229
1900.291702661245,0.9992720217303157
1900.296702021057,0.9994385150441188
1900.301701380869,0.9995740609360169
1900.306700740682,0.9996822050757513
1900.311700100494,0.9997667953611712
1900.316699460307,0.9998316865520206
1900.321698820119,0.9998805207428604
1900.326698179931,0.9999165821670659
1900.331697539744,0.9999427179498357
1900.336696899556,0.9999613123851637
1900.341696259368,0.9999743008050052
1900.346695619181,0.9999832095794894
1900.351694978993,0.9999892105733910
1900.356694338805,0.9999931808526341
1900.361693698618,0.9999957610643485
1900.366693058430,0.9999974083361167
1900.371692418242,0.9999984415400023
1900.376691778055,0.9999990782614262
1900.381691137867,0.9999994638146441
1900.386690497680,0.9999996932269852
1900.391689857492,0.9999998273707853
1900.396689217304,0.9999999044553751
1900.401688577117,0.9999999479892764
1900.406687936929,0.9999999721532835
1900.411687296742,0.9999999853361092
1900.416686656554,0.9999999924051706
1900.421686016366,0.9999999961311724
1900.426685376179,0.9999999980616550
1900.431684735991,0.9999999990448555
1900.436684095803,0.9999999995371029
1900.441683455616,0.9999999997793739
1900.446682815428,0.9999999998965947
1900.451682175240,0.9999999999523523
1900.456681535053,0.9999999999784259
1900.461680894865,0.9999999999904133
1900.466680254677,0.9999999999958317
1900.471679614490,0.9999999999982397
1900.476678974302,0.9999999999992912
1900.481678334115,0.9999999999997435
1900.486677693927,0.9999999999999343
1900.491677053739,1.000000000000013
1900.496676413552,1.000000000000046
1900.501675773364,1.000000000000059
1900.506675133176,1.000000000000064
1900.511674492989,1.000000000000066
1900.516673852801,1.000000000000067
1900.521673212613,1.000000000000067
1900.526672572426,1.000000000000067
1900.531671932238,1.000000000000067
1900.536671292051,1.000000000000067
1900.541670651863,1.000000000000067
1900.546670011675,1.000000000000067
1900.551669371488,1.000000000000068
1900.556668731300,1.000000000000067
1900.561668091112,1.000000000000067
1900.566667450925,1.000000000000067
1900.571666810737,1.000000000000068
1900.576666170550,1.000000000000067
1900.581665530362,1.000000000000067
1900.586664890174,1.000000000000067
1900.591664249986,1.000000000000067
1900.596663609799,1.000000000000067
1900.601662969611,1.000000000000067
1900.606662329424,1.000000000000067
1900.611661689236,1.000000000000067
1900.616661049048,1.000000000000067
1900.621660408861,1.000000000000067
1900.626659768673,1.000000000000067
1900.631659128486,1.000000000000067
1900.636658488298,1.000000000000067
1900.641657848110,1.000000000000067
1900.646657207923,1.000000000000067
1900.651656567735,1.000000000000067
1900.656655927547,1.000000000000067
1900.661655287360,1.000000000000067
1900.666654647172,1.000000000000067
1900.671654006984,1.000000000000067
1900.676653366797,1.000000000000067
1900.681652726609,1.000000000000067
1900.686652086421,1.000000000000067
1900.691651446234,1.000000000000067
1900.696650806046,1.000000000000067
1900.701650165859,1.000000000000066
1900.706649525671,1.000000000000067
1900.711648885483,1.000000000000067
1900.716648245296,1.000000000000067
1900.721647605108,1.000000000000067
1900.726646964920,1.000000000000067
1900.731646324733,1.000000000000067
1900.736645684545,1.000000000000067
1900.741645044357,1.000000000000066
1900.746644404170,1.000000000000067
1900.751643763982,1.000000000000067
1900.756643123795,1.000000000000067
1900.761642483607,1.000000000000067
1900.766641843419,1.000000000000068
1900.771641203232,1.000000000000067
1900.776640563044,1.000000000000067
1900.781639922856,1.000000000000067
1900.786639282669,1.000000000000067
1900.791638642481,1.000000000000067
1900.796638002294,1.000000000000067
1900.801637362106,1.000000000000067
1900.806636721918,1.000000000000068
1900.811636081731,1.000000000000067
1900.816635441543,1.000000000000067
1900.821634801355,1.000000000000067
1900.826634161168,1.000000000000067
1900.831633520980,1.000000000000067
1900.836632880792,1.000000000000068
1900.841632240605,1.000000000000068
1900.846631600417,1.000000000000068
1900.851630960230,1.000000000000068
1900.856630320042,1.000000000000067
1900.861629679854,1.000000000000067
1900.866629039667,1.000000000000067
1900.871628399479,1.000000000000067
1900.876627759291,1.000000000000067
1900.881627119104,1.000000000000067
1900.886626478916,1.000000000000067
1900.891625838728,1.000000000000067
1900.896625198541,1.000000000000067
1900.901624558353,1.000000000000067
1900.906623918165,1.000000000000067
1900.911623277978,1.000000000000067
1900.916622637790,1.000000000000067
1900.921621997603,1.000000000000067
1900.926621357415,1.000000000000068
1900.931620717227,1.000000000000068
1900.936620077040,1.000000000000067
1900.941619436852,1.000000000000067
1900.946618796664,1.000000000000068
1900.951618156477,1.000000000000067
1900.956617516289,1.000000000000067
1900.961616876102,1.000000000000067
1900.966616235914,1.000000000000067
1900.971615595726,1.000000000000067
1900.976614955539,1.000000000000067
1900.981614315351,1.000000000000067
1900.986613675163,1.000000000000067
1900.991613034976,1.000000000000067
1900.996612394788,1.000000000000067
1901.001611754600,1.000000000000067
1901.006611114413,1.000000000000067
1901.011610474225,1.000000000000067
1901.016609834038,1.000000000000067
1901.021609193850,1.000000000000067
1901.026608553662,1.000000000000067
1901.031607913475,1.000000000000067
1901.036607273287,1.000000000000067
1901.041606633099,1.000000000000067
1901.046605992912,1.000000000000067
1901.051605352724,1.000000000000067
1901.056604712536,1.000000000000067
1901.061604072349,1.000000000000067
1901.066603432161,1.000000000000067
1901.071602791974,1.000000000000067
1901.076602151786,1.000000000000067
1901.081601511598,1.000000000000067
1901.086600871411,1.000000000000067
1901.091600231223,1.000000000000067
1901.096599591035,1.000000000000067
1901.101598950848,1.000000000000067
1901.106598310660,1.000000000000067
1901.111597670473,1.000000000000067
1901.116597030285,1.000000000000067
1901.121596390097,1.000000000000067
1901.126595749909,1.000000000000068
1901.131595109722,1.000000000000067
1901.136594469534,1.000000000000068
1901.141593829347,1.000000000000067
1901.146593189159,1.000000000000068
1901.151592548971,1.000000000000068
1901.156591908784,1.000000000000067
1901.161591268596,1.000000000000067
1901.166590628408,1.000000000000067
1901.171589988221,1.000000000000067
1901.176589348033,1.000000000000067
1901.181588707846,1.000000000000067
1901.186588067658,1.000000000000067
1901.191587427470,1.000000000000067
1901.196586787283,1.000000000000067
1901.201586147095,1.000000000000067
1901.206585506907,1.000000000000067
1901.211584866720,1.000000000000067
1901.216584226532,1.000000000000067
1901.221583586344,1.000000000000067
1901.226582946157,1.000000000000067
1901.231582305969,1.000000000000067
1901.236581665782,1.000000000000067
1901.241581025594,1.000000000000067
1901.246580385406,1.000000000000067
1901.251579745219,1.000000000000067
1901.256579105031,1.000000000000067
1901.261578464843,1.000000000000067
1901.266577824656,1.000000000000067
1901.271577184468,1.000000000000067
1901.276576544280,1.000000000000067
1901.281575904093,1.000000000000067
1901.286575263905,1.000000000000067
1901.291574623718,1.000000000000067
1901.296573983530,1.000000000000067
1901.301573343342,1.000000000000067
1901.306572703155,1.000000000000067
1901.311572062967,1.000000000000067
1901.316571422779,1.000000000000068
1901.321570782592,1.000000000000067
1901.326570142404,1.000000000000067
1901.331569502217,1.000000000000067
1901.336568862029,1.000000000000068
1901.341568221841,1.000000000000068
1901.346567581654,1.000000000000068
1901.351566941466,1.000000000000068
1901.356566301278,1.000000000000067
1901.361565661091,1.000000000000067
1901.366565020903,1.000000000000067
1901.371564380715,1.000000000000067
1901.376563740528,1.000000000000067
1901.381563100340,1.000000000000067
1901.386562460152,1.000000000000067
1901.391561819965,1.000000000000067
1901.396561179777,1.000000000000067
1901.401560539590,1.000000000000067
1901.406559899402,1.000000000000067
1901.411559259214,1.000000000000067
1901.416558619027,1.000000000000067
1901.421557978839,1.000000000000067
1901.426557338651,1.000000000000067
1901.431556698464,1.000000000000067
1901.436556058276,1.000000000000067
1901.441555418088,1.000000000000067
1901.446554777901,1.000000000000067
1901.451554137713,1.000000000000067
1901.456553497526,1.000000000000067
1901.461552857338,1.000000000000067
1901.466552217150,1.000000000000067
1901.471551576963,1.000000000000067
1901.476550936775,1.000000000000067
1901.481550296587,1.000000000000067
1901.486549656400,1.000000000000067
1901.491549016212,1.000000000000067
1901.496548376025,1.000000000000067
1901.501547735837,1.000000000000067
1901.506547095649,1.000000000000067
1901.511546455461,1.000000000000067
1901.516545815274,1.000000000000067
1901.521545175086,1.000000000000067
1901.526544534899,1.000000000000067
1901.531543894711,1.000000000000068
1901.536543254523,1.000000000000067
1901.541542614336,1.000000000000067
1901.546541974148,1.000000000000068
1901.551541333961,1.000000000000068
1901.556540693773,1.000000000000067
1901.561540053585,1.000000000000067
1901.566539413398,1.000000000000067
1901.571538773210,1.000000000000067
1901.576538133022,1.000000000000067
1901.581537492835,1.000000000000067
1901.586536852647,1.000000000000067
1901.591536212459,1.000000000000067
1901.596535572272,1.000000000000067
1901.601534932084,1.000000000000067
1901.606534291896,1.000000000000067
1901.611533651709,1.000000000000067
1901.616533011521,1.000000000000067
1901.621532371334,1.000000000000067
1901.626531731146,1.000000000000066
1901.631531090958,1.000000000000065
1901.636530450771,1.000000000000060
1901.641529810583,1.000000000000043
1901.646529170396,0.9999999999999906
1901.651528530208,0.9999999999998258
1901.656527890020,0.9999999999993373
1901.661527249832,0.9999999999979451
1901.666526609645,0.9999999999941365
1901.671525969457,0.9999999999841369
1901.676525329270,0.9999999999589523
1901.681524689082,0.9999999998980953
1901.686524048894,0.9999999997570385
1901.691523408707,0.9999999994434797
1901.696522768519,0.9999999987751432
1901.701522128331,0.9999999974095425
1901.706521488144,0.9999999947353895
1901.711520847956,0.9999999897183909
1901.716520207769,0.9999999807040937
1901.721519567581,0.9999999651997988
1901.726518927393,0.9999999396866230
1901.731518287206,0.9999998995468730
1901.736517647018,0.9999998392193926
1901.741517006830,0.9999997526985662
1901.746516366643,0.9999996344517897
1901.751515726455,0.9999994807339088
1901.756515086267,0.9999992911331340
1901.761514446080,0.9999990700258934
1901.766513805892,0.9999988275064221
1901.771513165705,0.9999985793555343
1901.776512525517,0.9999983457641347
1901.781511885329,0.9999981488217433
1901.786511245142,0.9999980091460401
1901.791510604954,0.9999979423458281
1901.796509964766,0.9999979561522829
1901.801509324579,0.9999980489469423
1901.806508684391,0.9999982100737921
1901.811508044203,0.9999984218522743
1901.816507404016,0.9999986627656942
1901.821506763828,0.9999989110312647
1901.826506123640,0.9999991477403226
1901.831505483453,0.9999993589711906
1901.836504843265,0.9999995366250622
1901.841504203078,0.9999996780880562
1901.846503562890,0.9999997850728757
1901.851502922702,0.9999998620902921
1901.856502282515,0.9999999149552206
1901.861501642327,0.9999999495978263
1901.866501002140,0.9999999712922577
1901.871500361952,0.9999999842856598
1901.876499721764,0.9999999917331628
1901.881499081577,0.9999999958204758
1901.886498441389,0.9999999979692552
1901.891497801201,0.9999999990517590
1901.896497161014,0.9999999995744965
1901.901496520826,0.9999999998165252
1901.906495880638,0.9999999999239928
1901.911495240451,0.9999999999697646
1901.916494600263,0.9999999999884669
1901.921493960075,0.9999999999957996
1901.926493319888,0.9999999999985583
1901.931492679700,0.9999999999995514
1901.936492039513,0.9999999999998844
1901.941491399325,0.9999999999999425
1901.946490759137,0.9999999999997308
1901.951490118950,0.9999999999987275
1901.956489478762,0.9999999999948379
1901.961488838574,0.9999999999807989
1901.966488198387,0.9999999999332276
1901.971487558199,0.9999999997818180
1901.976486918011,0.9999999993292544
1901.981486277824,0.9999999980592356
1901.986485637636,0.9999999947141517
1901.991484997449,0.9999999864479573
1901.996484357261,0.9999999672918731
1902.001483717073,0.9999999256848074
1902.006483076886,0.9999998410428823
1902.011482436698,0.9999996799100386
1902.016481796510,0.9999993931755310
1902.021481156323,0.9999989169154346
1902.026480516135,0.9999981799671239
1902.031479875948,0.9999971204605728
1902.036479235760,0.9999957105353940
1902.041478595572,0.9999939837109263
1902.046477955384,0.9999920547229324
1902.051477315197,0.9999901200849611
1902.056476675009,0.9999884316857609
1902.061476034822,0.9999872453567492
1902.066475394634,0.9999867579165599
1902.071474754446,0.9999870538044670
1902.076474114259,0.9999880811722131
1902.081473474071,0.9999896667304676
1902.086472833884,0.9999915635131229
1902.091472193696,0.9999935134836266
1902.096471553508,0.9999953032956990
1902.101470913321,0.9999967973315614
1902.106470273133,0.9999979432928853
1902.111469632945,0.9999987561195368
1902.116468992758,0.9999992915096731
1902.121468352570,0.9999996199498102
1902.126467712382,0.9999998079997995
1902.131467072195,0.9999999086481575
1902.136466432007,0.9999999590656194
1902.141465791819,0.9999999827251674
1902.146465151632,0.9999999931341834
1902.151464511444,0.9999999974300854
1902.156463871257,0.9999999990940969
1902.161463231069,0.9999999996992899
1902.166462590881,0.9999999999060261
1902.171461950694,0.9999999999723769
1902.176461310506,0.9999999999923886
1902.181460670319,0.9999999999980619
1902.186460030131,0.9999999999995741
1902.191459389943,0.9999999999999530
1902.196458749755,1.000000000000042
1902.201458109568,1.000000000000062
1902.206457469380,1.000000000000066
1902.211456829193,1.000000000000067
1902.216456189005,1.000000000000067
1902.221455548817,1.000000000000067
1902.226454908630,1.000000000000067
1902.231454268442,1.000000000000068
1902.236453628254,1.000000000000067
1902.241452988067,1.000000000000067
1902.246452347879,1.000000000000067
1902.251451707692,1.000000000000067
1902.256451067504,1.000000000000067
1902.261450427316,1.000000000000067
1902.266449787129,1.000000000000067
1902.271449146941,1.000000000000067
1902.276448506753,1.000000000000066
1902.281447866566,1.000000000000066
1902.286447226378,1.000000000000066
1902.291446586190,1.000000000000066
1902.296445946003,1.000000000000066
1902.301445305815,1.000000000000066
1902.306444665628,1.000000000000066
1902.311444025440,1.000000000000066
1902.316443385252,1.000000000000066
1902.321442745065,1.000000000000066
1902.326442104877,1.000000000000067
1902.331441464689,1.000000000000066
1902.336440824502,1.000000000000066
1902.341440184314,1.000000000000066
1902.346439544126,1.000000000000066
1902.351438903939,1.000000000000066
1902.356438263751,1.000000000000066
1902.361437623563,1.000000000000066
1902.366436983376,1.000000000000066
1902.371436343188,1.000000000000066
1902.376435703001,1.000000000000066
1902.381435062813,1.000000000000066
1902.386434422625,1.000000000000067
1902.391433782438,1.000000000000066
1902.396433142250,1.000000000000066
1902.401432502063,1.000000000000066
1902.406431861875,1.000000000000066
1902.411431221687,1.000000000000066
1902.416430581500,1.000000000000066
1902.421429941312,1.000000000000066
1902.426429301124,1.000000000000066
1902.431428660937,1.000000000000066
1902.436428020749,1.000000000000066
1902.441427380561,1.000000000000067
1902.446426740374,1.000000000000067
1902.451426100186,1.000000000000067
1902.456425459998,1.000000000000066
1902.461424819811,1.000000000000066
1902.466424179623,1.000000000000067
1902.471423539436,1.000000000000067
1902.476422899248,1.000000000000067
1902.481422259060,1.000000000000067
1902.486421618873,1.000000000000067
1902.491420978685,1.000000000000067
